#depth (m)	Relative density
0	0.38167938931298
1	0.38999084272681
2	0.39836667944267
3	0.40680244055922
4	0.41529352894874
5	0.42383521852076
6	0.43242266411148
7	0.44105091195846
8	0.44971491071564
9	0.45840952295899
10	0.46712953712889
11	0.47586967985171
12	0.48462462857957
13	0.49338902448468
14	0.50215748554218
15	0.51092461973388
16	0.51968503830419
17	0.52843336899896
18	0.5371642692183
19	0.545872439015
20	0.55455263387173
21	0.56319967719203
22	0.57180847244269
23	0.58037401488825
24	0.58889140286161
25	0.5973558485192
26	0.60355200931413
27	0.60882523374616
28	0.61407316748534
29	0.61929472112152
30	0.62448882897304
31	0.62965444984959
32	0.63479056777029
33	0.63989619263607
34	0.6449703608559
35	0.65001213592628
36	0.65502060896369
37	0.65999489918964
38	0.66493415436849
39	0.66983755119771
40	0.67470429565103
41	0.67953362327463
42	0.68432479943675
43	0.68907711953127
44	0.69378990913576
45	0.69846252412493
46	0.70309435074002
47	0.70768480561517
48	0.71223333576186
49	0.71673941851216
50	0.72120256142232
51	0.7256223021376
52	0.72999820821974
53	0.73432987693842
54	0.73861693502796
55	0.74285903841085
56	0.74705587188934
57	0.7512071488068
58	0.75531261068021
59	0.75937202680534
60	0.76338519383623
61	0.7673519353404
62	0.77127210133148
63	0.77514556778068
64	0.77897223610879
65	0.78275203266014
66	0.78648490816007
67	0.7901708371574
68	0.79380981745353
69	0.79740186951934
70	0.80094703590156
71	0.80444538061998
72	0.8078969885567
73	0.8113019648389
74	0.81466043421642
75	0.81797254043524
76	0.82123844560822
77	0.82445832958422
78	0.82763238931661
79	0.83076083823239
80	0.83384390560279
81	0.83688183591647
82	0.83987488825609
83	0.84282333567923
84	0.84572746460441
85	0.84858757420309
86	0.85140397579825
87	0.85417699227032
88	0.8569069574711
89	0.85959421564616
90	0.8622391208664
91	0.86484203646916
92	0.8674033345094
93	0.86992339522136
94	0.872402606491
95	0.87484136333964
96	0.87724006741911
97	0.87959912651856
98	0.88191895408322
99	0.88419996874537
100	0.88644259386746
101	0.88864725709783
102	0.89081438993874
103	0.89294442732714
104	0.89503780722796
105	0.89760398322144
106	0.90013806802926
107	0.90263802714006
108	0.90510198670422
109	0.90752823202575
110	0.90991520534202
111	0.91226150296948
112	0.91456587189103
113	0.91682720585678
114	0.91904454106651
115	0.92121705149734
116	0.92334404393645
117	0.92542495277374
118	0.92745933460528
119	0.92944686269386
120	0.93138732132903
121	0.93328060012463
122	0.93512668828837
123	0.93692566889415
124	0.93867771318465
125	0.94038307492826
126	0.94204208485201
127	0.943655145169
128	0.94522272421669
129	0.94674535122018
130	0.94822361119246
131	0.94965813998187
132	0.9510496194755
133	0.95239877296551
134	0.95370636068432
135	0.95497317551321
136	0.95620003886804
137	0.95738779676456
138	0.95853731606515
139	0.9596494809081
140	0.96072518931946
141	0.96176535000734
142	0.96277087933763
143	0.96374269848972
144	0.96468173079009
145	0.96558889922154
146	0.96646512410505
147	0.96731132095093
148	0.96812839847576
149	0.9689172567809
150	0.96967878568829
151	0.97041386322884
152	0.9711233542784
153	0.97180810933611
154	0.97246896343961
155	0.97310673521143
156	0.97372222603069
157	0.97431621932411
158	0.97488947997016
159	0.97544275381014
160	0.9759767672599
161	0.97649222701596
162	0.9769898198497
163	0.97747021248335
164	0.97793405154183
165	0.97838196357402
166	0.97881455513802
167	0.97923241294418
168	0.97963610405069
169	0.98002617610616
170	0.98040315763413
171	0.98076755835452
172	0.98111986953741
173	0.9814605643848
174	0.98179009843599
175	0.98210890999289
176	0.9824174205616
177	0.98271603530676
178	0.98300514351575
179	0.98328511906983
180	0.98355632091949
181	0.98381909356194
182	0.98407376751831
183	0.98432065980884
184	0.98456007442433
185	0.98479230279226
186	0.98501762423642
187	0.98523630642881
188	0.98544860583279
189	0.98565476813676
190	0.98585502867767
191	0.98604961285365
192	0.98623873652556
193	0.98642260640679
194	0.98660142044146
195	0.98677536817044
196	0.98694463108542
197	0.98710938297087
198	0.98726979023389
199	0.98742601222214
200	0.98757820152994
201	0.98772650429264
202	0.98787106046966
203	0.98801200411613
204	0.98814946364374
205	0.98828356207078
206	0.98841441726183
207	0.98854214215731
208	0.98866684499328
209	0.98878862951175
210	0.9889075951618
211	0.98902383729193
212	0.98913744733382
213	0.98924851297796
214	0.98935711834132
215	0.98946334412754
216	0.98956726777973
217	0.98966947602839
218	0.98977058205758
219	0.98987057826562
220	0.98996945780222
221	0.99006721455972
222	0.99016384316383
223	0.99025933896375
224	0.99035369802179
225	0.99044691710251
226	0.99053899366127
227	0.9906299258324
228	0.99071971241684
229	0.99080835286943
230	0.99089584728569
231	0.99098219638828
232	0.99106740151307
233	0.99115146459489
234	0.99123438815286
235	0.99131617527558
236	0.99139682960589
237	0.99147635532546
238	0.99155475713916
239	0.99163204025913
240	0.99170821038879
241	0.9917832737066
242	0.99185723684969
243	0.99193010689744
244	0.99200189135486
245	0.99207259813604
246	0.99214223554738
247	0.99221081227098
248	0.99227833734786
249	0.99234482016131
250	0.99241027042023
251	0.99247469814253
252	0.99253811363863
253	0.99260052749504
254	0.99266195055803
255	0.99272239391754
256	0.99278186889107
257	0.99284038700795
258	0.9928979599936
259	0.99295459975414
260	0.99301031836112
261	0.99306512803658
262	0.99311904113826
263	0.99317207014511
264	0.99322422764315
265	0.99327552631146
266	0.99332597890862
267	0.99337559825937
268	0.9934243972416
269	0.9934723887737
270	0.99351958580223
271	0.99356600128991
272	0.99361164820399
273	0.99365653950494
274	0.99370068813557
275	0.99374410701045
276	0.9937868090057
277	0.99382880694921
278	0.99387011361119
279	0.99391074169511
280	0.993950703829
281	0.99399001255718
282	0.9940286803323
283	0.99406671950784
284	0.99410414233089
285	0.99414096093538
286	0.99417718733568
287	0.99421283342052
288	0.9942479109473
289	0.99428243153678
290	0.99431640666811
291	0.99434984767421
292	0.99438276573749
293	0.99441517188592
294	0.99444707698947
295	0.99447849175678
296	0.99450942673224
297	0.99453989229335
298	0.99456989864838
299	0.99459945583434
300	0.99462857371522
301	0.99465726198053
302	0.9946855301441
303	0.99471338754313
304	0.99474084333754
305	0.99476790650947
306	0.99479458586317
307	0.99482089002493
308	0.99484682744339
309	0.99487240638992
310	0.99489763495935
311	0.99492252107072
312	0.99494707246834
313	0.99497129672296
314	0.99499520123313
315	0.99501879322665
316	0.99504207976226
317	0.99506506773137
318	0.99508776386
319	0.99511017471074
320	0.9951323066849
321	0.99515416602475
322	0.99517575881576
323	0.99519709098907
324	0.99521816832393
325	0.99523899645021
326	0.99525958085105
327	0.99527992686546
328	0.99530003969104
329	0.99531992438674
330	0.99533958587558
331	0.9953590289475
332	0.99537825826215
333	0.99539727835171
334	0.99541609362378
335	0.99543470836422
336	0.99545312673995
337	0.99547135280187
338	0.99548939048765
339	0.99550724362458
340	0.99552491593234
341	0.99554241102585
342	0.99555973241797
343	0.99557688352226
344	0.99559386765571
345	0.99561068804137
346	0.99562734781101
347	0.99564385000771
348	0.99566019758843
349	0.9956763934265
350	0.99569244031413
351	0.9957083409648
352	0.99572409801566
353	0.99573971402985
354	0.9957551914988
355	0.99577053284444
356	0.9957857404214
357	0.99580081651915
358	0.99581576336402
359	0.99583058312133
360	0.99584527789727
361	0.99585984974086
362	0.99587430064586
363	0.9958886325525
364	0.99590284734935
365	0.99591694687496
366	0.99593093291957
367	0.9959448072267
368	0.99595857149474
369	0.99597222737845
370	0.99598577649044
371	0.99599922040258
372	0.99601256064739
373	0.99602579871936
374	0.99603893607625
375	0.9960519741403
376	0.99606491429948
377	0.99607775790857
378	0.99609050629037
379	0.99610316073668
380	0.99611572250942
381	0.99612819284157
382	0.99614057293817
383	0.99615286397722
384	0.99616506711058
385	0.99617718346485
386	0.99618921414218
387	0.99620116022104
388	0.99621302275703
389	0.99622480278359
390	0.99623650131271
391	0.99624811933561
392	0.99625965782341
393	0.99627111772771
394	0.99628249998126
395	0.99629380549847
396	0.99630503517604
397	0.99631618989343
398	0.99632727051342
399	0.99633827788258
400	0.99634921283174
401	0.99636007617648
402	0.99637086871753
403	0.99638159124123
404	0.99639224451988
405	0.99640282931219
406	0.99641334636363
407	0.99642379640678
408	0.99643418016169
409	0.9964444983362
410	0.99645475162629
411	0.99646494071634
412	0.9964750662795
413	0.99648512897789
414	0.99649512946294
415	0.99650506837565
416	0.99651494634681
417	0.99652476399728
418	0.99653452193821
419	0.99654422077129
420	0.99655386108895
421	0.9965634434746
422	0.9965729685028
423	0.9965824367395
424	0.99659184874221
425	0.99660120506019
426	0.99661050623464
427	0.99661975279887
428	0.99662894527845
429	0.99663808419143
430	0.99664717004842
431	0.99665620335282
432	0.99666518460091
433	0.99667411428203
434	0.99668299287873
435	0.99669182086686
436	0.99670059871574
437	0.99670932688828
438	0.9967180058411
439	0.99672663602467
440	0.9967352178834
441	0.99674375185577
442	0.99675223837445
443	0.99676067786639
444	0.99676907075293
445	0.99677741744993
446	0.99678571836783
447	0.99679397391177
448	0.9968021844817
449	0.99681035047243
450	0.99681847227377
451	0.99682655027057
452	0.99683458484287
453	0.99684257636589
454	0.99685052521023
455	0.99685843174184
456	0.99686629632217
457	0.99687411930823
458	0.99688190105263
459	0.99688964190371
460	0.99689734220558
461	0.99690500229817
462	0.99691262251735
463	0.99692020319495
464	0.99692774465885
465	0.99693524723305
466	0.99694271123769
467	0.99695013698918
468	0.9969575248002
469	0.99696487497977
470	0.99697218783335
471	0.99697946366283
472	0.99698670276664
473	0.99699390543978
474	0.99700107197388
475	0.99700820265724
476	0.9970152977749
477	0.99702235760866
478	0.99702938243717
479	0.99703637253594
480	0.99704332817742
481	0.997050249631
482	0.99705713716311
483	0.99706399103723
484	0.99707081151394
485	0.99707759885095
486	0.99708435330319
487	0.99709107512279
488	0.99709776455914
489	0.99710442185896
490	0.9971110472663
491	0.9971176410226
492	0.99712420336671
493	0.99713073453495
494	0.99713723476113
495	0.99714370427658
496	0.99715014331019
497	0.99715655208847
498	0.99716293083553
499	0.99716927977316
500	0.99717559912086
501	0.99718188909581
502	0.997188149913
503	0.99719438178519
504	0.99720058492294
505	0.99720675953468
506	0.99721290582672
507	0.99721902400325
508	0.99722511426643
509	0.99723117681635
510	0.99723721185111
511	0.99724321956681
512	0.99724920015761
513	0.99725515381571
514	0.99726108073143
515	0.99726698109319
516	0.99727285508756
517	0.99727870289927
518	0.99728452471125
519	0.99729032070463
520	0.99729609105879
521	0.99730183595135
522	0.99730755555823
523	0.99731325005365
524	0.99731891961014
525	0.99732456439858
526	0.99733018458823
527	0.99733578034672
528	0.9973413518401
529	0.99734689923283
530	0.99735242268783
531	0.99735792236648
532	0.99736339842865
533	0.9973688510327
534	0.99737428033552
535	0.99737968649254
536	0.99738506965775
537	0.9973904299837
538	0.99739576762154
539	0.99740108272104
540	0.99740637543059
541	0.9974116458972
542	0.99741689426656
543	0.99742212068304
544	0.99742732528967
545	0.99743250822823
546	0.99743766963917
547	0.99744280966172
548	0.99744792843383
549	0.99745302609223
550	0.99745810277242
551	0.99746315860872
552	0.99746819373421
553	0.99747320828084
554	0.99747820237936
555	0.99748317615939
556	0.9974881297494
557	0.99749306327674
558	0.99749797686765
559	0.99750287064725
560	0.99750774473961
561	0.99751259926769
562	0.99751743435341
563	0.99752225011761
564	0.99752704668013
565	0.99753182415976
566	0.99753658267426
567	0.99754132234041
568	0.99754604327399
569	0.99755074558979
570	0.99755542940163
571	0.99756009482237
572	0.99756474196392
573	0.99756937093725
574	0.9975739818524
575	0.99757857481848
576	0.99758314994371
577	0.99758770733538
578	0.99759224709992
579	0.99759676934287
580	0.99760127416888
581	0.99760576168176
582	0.99761023198446
583	0.99761468517908
584	0.99761912136688
585	0.99762354064833
586	0.99762794312303
587	0.9976323288898
588	0.99763669804667
589	0.99764105069086
590	0.99764538691879
591	0.99764970682615
592	0.99765401050783
593	0.99765829805796
594	0.99766256956993
595	0.99766682513638
596	0.99767106484921
597	0.99767528879961
598	0.99767949707802
599	0.9976836897742
600	0.99768786697716
601	0.99769202877525
602	0.99769617525611
603	0.9977003065067
604	0.99770442261329
605	0.99770852366148
606	0.99771260973624
607	0.99771668092182
608	0.99772073730187
609	0.99772477895938
610	0.99772880597669
611	0.99773281843551
612	0.99773681641693
613	0.99774080000143
614	0.99774476926885
615	0.99774872429845
616	0.99775266516887
617	0.99775659195816
618	0.99776050474377
619	0.99776440360259
620	0.9977682886109
621	0.99777215984443
622	0.99777601737833
623	0.99777986128719
624	0.99778369164506
625	0.99778750852541
626	0.99779131200119
627	0.99779510214478
628	0.99779887902805
629	0.99780264272233
630	0.99780639329843
631	0.99781013082662
632	0.99781385537669
633	0.99781756701788
634	0.99782126581894
635	0.99782495184813
636	0.9978286251732
637	0.99783228586141
638	0.99783593397954
639	0.99783956959387
640	0.99784319277022
641	0.99784680357393
642	0.99785040206986
643	0.99785398832242
644	0.99785756239556
645	0.99786112435276
646	0.99786467425705
647	0.99786821217101
648	0.9978717381568
649	0.9978752522761
650	0.99787875459019
651	0.9978822451599
652	0.99788572404562
653	0.99788919130734
654	0.99789264700462
655	0.9978960911966
656	0.99789952394201
657	0.99790294529916
658	0.99790635532597
659	0.99790975407995
660	0.99791314161821
661	0.99791651799747
662	0.99791988327405
663	0.99792323750389
664	0.99792658074255
665	0.99792991304519
666	0.99793323446661
667	0.99793654506123
668	0.99793984488309
669	0.99794313398587
670	0.9979464124229
671	0.99794968024711
672	0.9979529375111
673	0.99795618426712
674	0.99795942056705
675	0.99796264646242
676	0.99796586200443
677	0.99796906724392
678	0.99797226223139
679	0.99797544701703
680	0.99797862165065
681	0.99798178618177
682	0.99798494065956
683	0.99798808513286
684	0.99799121965021
685	0.99799434425979
686	0.9979974590095
687	0.99800056394691
688	0.99800365911927
689	0.99800674457354
690	0.99800982035634
691	0.99801288651403
692	0.99801594309262
693	0.99801899013786
694	0.99802202769517
695	0.99802505580971
696	0.99802807452631
697	0.99803108388955
698	0.99803408394368
699	0.99803707473269
700	0.9980400563003
701	0.99804302868991
702	0.99804599194468
703	0.99804894610747
704	0.99805189122088
705	0.99805482732723
706	0.99805775446858
707	0.99806067268671
708	0.99806358202315
709	0.99806648251914
710	0.99806937421571
711	0.99807225715357
712	0.99807513137322
713	0.99807799691489
714	0.99808085381855
715	0.99808370212394
716	0.99808654187052
717	0.99808937309753
718	0.99809219584396
719	0.99809501014855
720	0.99809781604981
721	0.998100613586
722	0.99810340279516
723	0.99810618371507
724	0.9981089563833
725	0.99811172083718
726	0.99811447711381
727	0.99811722525006
728	0.99811996528258
729	0.9981226972478
730	0.99812542118191
731	0.99812813712089
732	0.99813084510051
733	0.99813354515631
734	0.99813623732362
735	0.99813892163755
736	0.99814159813301
737	0.99814426684469
738	0.99814692780707
739	0.99814958105443
740	0.99815222662084
741	0.99815486454017
742	0.99815749484607
743	0.99816011757202
744	0.99816273275127
745	0.99816534041689
746	0.99816794060175
747	0.99817053333852
748	0.99817311865968
749	0.99817569659752
750	0.99817826718413
751	0.99818083045143
752	0.99818338643114
753	0.99818593515478
754	0.99818847665371
755	0.99819101095908
756	0.9981935381019
757	0.99819605811295
758	0.99819857102285
759	0.99820107686206
760	0.99820357566084
761	0.99820606744928
762	0.9982085522573
763	0.99821103011464
764	0.99821350105088
765	0.99821596509542
766	0.99821842227748
767	0.99822087262614
768	0.99822331617029
769	0.99822575293867
770	0.99822818295984
771	0.99823060626221
772	0.99823302287402
773	0.99823543282336
774	0.99823783613814
775	0.99824023284613
776	0.99824262297494
777	0.99824500655202
778	0.99824738360466
779	0.99824975416001
780	0.99825211824505
781	0.99825447588662
782	0.9982568271114
783	0.99825917194594
784	0.99826151041662
785	0.99826384254968
786	0.99826616837122
787	0.99826848790718
788	0.99827080118337
789	0.99827310822545
790	0.99827540905894
791	0.99827770370921
792	0.99827999220151
793	0.99828227456092
794	0.99828455081242
795	0.99828682098081
796	0.99828908509079
797	0.99829134316691
798	0.99829359523358
799	0.99829584131508
800	0.99829808143556
801	0.99830031561904
802	0.99830254388941
803	0.99830476627042
804	0.99830698278569
805	0.99830919345874
806	0.99831139831292
807	0.99831359737149
808	0.99831579065756
809	0.99831797819413
810	0.99832016000407
811	0.99832233611013
812	0.99832450653493
813	0.99832667130099
814	0.99832883043068
815	0.99833098394627
816	0.9983331318699
817	0.9983352742236
818	0.99833741102929
819	0.99833954230876
820	0.99834166808368
821	0.99834378837561
822	0.99834590320602
823	0.99834801259623
824	0.99835011656747
825	0.99835221514084
826	0.99835430833736
827	0.9983563961779
828	0.99835847868325
829	0.99836055587408
830	0.99836262777096
831	0.99836469439433
832	0.99836675576456
833	0.99836881190187
834	0.99837086282641
835	0.99837290855822
836	0.99837494911722
837	0.99837698452323
838	0.99837901479599
839	0.9983810399551
840	0.9983830600201
841	0.9983850750104
842	0.99838708494531
843	0.99838908984407
844	0.99839108972579
845	0.9983930846095
846	0.99839507451412
847	0.99839705945847
848	0.99839903946131
849	0.99840101454125
850	0.99840298471685
851	0.99840495000655
852	0.99840691042871
853	0.9984088660016
854	0.99841081674337
855	0.99841276267211
856	0.99841470380581
857	0.99841664016236
858	0.99841857175956
859	0.99842049861513
860	0.99842242074671
861	0.99842433817182
862	0.99842625090792
863	0.99842815897237
864	0.99843006238245
865	0.99843196115536
866	0.99843385530818
867	0.99843574485796
868	0.99843762982161
869	0.998439510216
870	0.99844138605788
871	0.99844325736395
872	0.99844512415081
873	0.99844698643497
874	0.99844884423288
875	0.9984506975609
876	0.9984525464353
877	0.99845439087228
878	0.99845623088796
879	0.99845806649838
880	0.99845989771949
881	0.99846172456719
882	0.99846354705728
883	0.99846536520549
884	0.99846717902746
885	0.99846898853878
886	0.99847079375494
887	0.99847259469138
888	0.99847439136344
889	0.99847618378639
890	0.99847797197545
891	0.99847975594573
892	0.9984815357123
893	0.99848331129015
894	0.99848508269417
895	0.99848684993923
896	0.99848861304007
897	0.99849037201141
898	0.99849212686786
899	0.998493877624
900	0.99849562429431
901	0.99849736689321
902	0.99849910543504
903	0.99850083993411
904	0.99850257040462
905	0.99850429686071
906	0.99850601931648
907	0.99850773778594
908	0.99850945228303
909	0.99851116282165
910	0.9985128694156
911	0.99851457207864
912	0.99851627082447
913	0.9985179656667
914	0.99851965661889
915	0.99852134369454
916	0.99852302690709
917	0.99852470626991
918	0.99852638179631
919	0.99852805349953
920	0.99852972139275
921	0.99853138548911
922	0.99853304580167
923	0.99853470234343
924	0.99853635512733
925	0.99853800416625
926	0.99853964947303
927	0.99854129106042
928	0.99854292894112
929	0.9985445631278
930	0.99854619363303
931	0.99854782046934
932	0.99854944364922
933	0.99855106318508
934	0.99855267908927
935	0.99855429137411
936	0.99855590005184
937	0.99855750513465
938	0.99855910663467
939	0.998560704564
940	0.99856229893465
941	0.99856388975861
942	0.99856547704777
943	0.99856706081402
944	0.99856864106916
945	0.99857021782495
946	0.99857179109308
947	0.99857336088523
948	0.99857492721297
949	0.99857649008786
950	0.9985780495214
951	0.99857960552503
952	0.99858115811014
953	0.99858270728807
954	0.99858425307012
955	0.99858579546752
956	0.99858733449147
957	0.9985888701531
958	0.99859040246351
959	0.99859193143375
960	0.9985934570748
